t (s),V (mV)
0,18.995
1.021,18.7257
2.022,18.7115
3.023,18.7155
4.024,18.7099
5.025,18.6993
6.026,18.6858
7.027,18.6698
8.028,18.652
9.029,18.6336
10.03,18.614
11.031,18.5943
12.032,18.574
13.033,18.5532
14.034,18.5324
15.035,18.5114
16.036,18.4917
17.037,18.471
18.038,18.4497
19.039,18.4293
20.04,18.4099
21.041,18.3895
22.042,18.3702
23.043,18.3502
24.044,18.331
25.045,18.3124
26.046,18.2937
27.047,18.2751
28.048,18.256
29.049,18.238
30.05,18.2191
31.051,18.2006
32.021,18.1825
33.022,18.1641
34.023,18.146
35.024,18.1282
36.025,18.1092
37.026,18.0905
38.027,18.0722
39.028,18.0543
40.029,18.0361
41.03,18.0169
42.031,17.9987
43.032,17.979
44.033,17.9607
45.034,17.9432
46.035,17.925
47.036,17.9076
48.037,17.8901
49.038,17.8728
50.039,17.8553
51.04,17.8382
52.041,17.8216
53.042,17.8047
54.043,17.7873
55.044,17.7701
56.045,17.7537
57.046,17.7356
58.047,17.7186
59.048,17.7013
60.049,17.6833
61.05,17.6657
62.051,17.6474
63.052,17.6305
64.021,17.6145
65.022,17.5964
66.023,17.578
67.024,17.5603
68.025,17.5433
69.026,17.525
70.027,17.5082
71.028,17.4907
72.029,17.4738
73.03,17.4573
74.032,17.4401
75.033,17.4233
76.034,17.4056
77.035,17.39
78.036,17.3727
79.037,17.356
80.038,17.3396
81.039,17.3237
82.04,17.3092
83.041,17.2907
84.042,17.2746
85.043,17.2581
86.044,17.242
87.045,17.2256
88.046,17.2106
89.047,17.1948
90.048,17.1791
91.049,17.1632
92.05,17.1475
93.051,17.1315
94.021,17.1153
95.022,17.1001
96.023,17.0836
97.024,17.0684
98.025,17.052
99.026,17.0372
100.027,17.0207
101.028,17.0049
102.029,16.989
103.03,16.9729
104.031,16.9571
105.032,16.9416
106.033,16.9253
107.034,16.9092
108.035,16.8939
109.036,16.878
110.037,16.8619
111.038,16.8454
112.039,16.8292
113.04,16.8131
114.041,16.7963
115.042,16.7794
116.043,16.7634
117.044,16.747
118.045,16.7313
119.046,16.7152
120.047,16.6995
121.048,16.6834
122.049,16.6674
123.05,16.6513
124.051,16.6349
125.021,16.6207
126.022,16.6061
127.023,16.5899
128.024,16.5749
129.025,16.5602
130.026,16.5445
131.027,16.5291
132.028,16.5137
133.029,16.4983
134.03,16.4828
135.031,16.4673
136.032,16.4512
137.033,16.4348
138.034,16.4196
139.035,16.4043
140.036,16.3893
141.037,16.3734
142.038,16.3586
143.039,16.3426
144.04,16.3273
145.041,16.3121
146.042,16.2975
147.043,16.2826
148.044,16.2684
149.045,16.2544
150.046,16.2398
151.047,16.2252
152.048,16.2112
153.049,16.196
154.05,16.181
155.051,16.1657
156.052,16.151
157.021,16.137
158.022,16.1223
159.023,16.1071
160.024,16.0927
161.025,16.0781
162.026,16.0635
163.027,16.0489
164.028,16.0348
165.029,16.0198
166.03,16.0056
167.031,15.99
168.032,15.9763
169.033,15.9615
170.034,15.9463
171.035,15.9315
172.036,15.917
173.037,15.9022
174.038,15.8881
175.039,15.8737
176.04,15.8583
177.041,15.8445
178.042,15.83
179.043,15.8158
180.044,15.8011
181.045,15.7863
182.046,15.7712
183.047,15.7564
184.048,15.7423
185.049,15.7271
186.051,15.7126
187.051,15.6984
188.021,15.6849
189.022,15.6707
190.023,15.6562
191.024,15.6422
192.025,15.629
193.026,15.6145
194.027,15.6005
195.028,15.586
196.029,15.5714
197.03,15.557
198.031,15.543
199.032,15.5293
200.033,15.5148
201.034,15.5007
202.035,15.4865
203.036,15.4726
204.037,15.4585
205.038,15.4449
206.039,15.4311
207.04,15.4169
208.041,15.4025
209.042,15.3887
210.043,15.3745
211.044,15.361
212.045,15.3476
213.046,15.3342
214.047,15.3212
215.048,15.3076
216.049,15.2942
217.05,15.2813
218.051,15.2683
219.052,15.2545
220.021,15.2407
221.022,15.2269
222.024,15.2129
223.024,15.1986
224.025,15.1857
225.026,15.1718
226.027,15.158
227.047,15.1437
228.048,15.1301
229.049,15.1169
230.05,15.1029
231.051,15.0901
232.021,15.0777
233.022,15.0645
234.023,15.051
235.024,15.0394
236.025,15.0257
237.026,15.0131
238.027,15.0005
239.028,14.9878
240.029,14.9744
241.03,14.9618
242.031,14.9489
243.032,14.9358
244.033,14.923
245.034,14.9102
246.035,14.8973
247.036,14.8842
248.037,14.871
249.038,14.8583
250.039,14.8456
251.04,14.8322
252.041,14.8191
253.042,14.806
254.043,14.7922
255.044,14.7789
256.045,14.7652
257.046,14.7534
258.047,14.7403
259.048,14.7271
260.049,14.7145
261.05,14.701
262.051,14.6888
263.052,14.6754
264.021,14.6625
265.022,14.6501
266.023,14.6367
267.024,14.6238
268.025,14.6105
269.026,14.5972
270.027,14.5845
271.028,14.5712
272.029,14.5587
273.03,14.5458
274.031,14.533
275.032,14.5204
276.033,14.5072
277.034,14.4941
278.035,14.4808
279.036,14.4679
280.037,14.4552
281.038,14.4428
282.04,14.4301
283.04,14.4167
284.041,14.4044
285.042,14.3916
286.043,14.3784
287.044,14.3659
288.046,14.3534
289.046,14.3419
290.047,14.329
291.048,14.3155
292.049,14.3028
293.05,14.2903
294.051,14.2773
295.052,14.2648
296.02,14.2523
297.021,14.2396
298.022,14.2266
299.024,14.2155
300.025,14.2017
301.026,14.1883
302.027,14.176
303.028,14.1637
304.029,14.1515
305.03,14.1395
306.031,14.1276
307.032,14.1152
308.034,14.1025
309.035,14.0905
310.035,14.0787
311.037,14.067
312.038,14.0551
313.039,14.0426
314.039,14.0304
315.04,14.0182
316.041,14.007
317.042,13.9954
318.043,13.9833
319.044,13.9721
320.045,13.96
321.047,13.9484
322.048,13.9368
323.048,13.9251
324.05,13.9131
325.05,13.9024
326.052,13.892
327.052,13.8802
328.022,13.869
329.022,13.8589
330.024,13.847
331.024,13.8354
332.026,13.8238
333.027,13.812
334.028,13.8009
335.028,13.7902
336.03,13.7783
337.03,13.767
338.032,13.7557
339.033,13.7436
340.034,13.733
341.035,13.7215
342.036,13.7092
343.037,13.6976
344.038,13.6859
345.039,13.6753
346.04,13.6632
347.04,13.6516
348.042,13.6403
349.042,13.6288
350.044,13.6169
351.045,13.6053
352.046,13.594
353.047,13.5822
354.048,13.5707
355.049,13.5593
356.05,13.5475
357.051,13.5349
358.052,13.5237
359.022,13.513
360.023,13.5014
361.024,13.4907
362.025,13.4793
363.026,13.4678
364.027,13.4555
365.028,13.4447
366.029,13.4335
367.03,13.4223
368.031,13.4093
369.032,13.3986
370.033,13.3867
371.034,13.3747
372.035,13.3631
373.036,13.3507
374.037,13.3393
375.038,13.3277
376.039,13.3167
377.04,13.3052
378.041,13.2933
379.042,13.283
380.043,13.272
381.044,13.2623
382.045,13.2526
383.046,13.2421
384.047,13.2317
385.048,13.221
386.049,13.2098
387.05,13.1991
388.051,13.1885
389.052,13.1776
390.053,13.1661
391.022,13.1542
392.023,13.1429
393.024,13.1315
394.025,13.1211
395.026,13.1093
396.027,13.0981
397.028,13.0864
398.029,13.0757
399.03,13.065
400.031,13.0534
401.032,13.0429
402.033,13.0312
403.034,13.0198
404.035,13.0085
405.036,12.9972
406.037,12.986
407.038,12.9754
408.039,12.9643
409.04,12.9522
410.042,12.942
411.043,12.9314
412.044,12.9196
413.045,12.9085
414.046,12.8971
415.047,12.8866
416.048,12.8747
417.049,12.8641
418.05,12.8529
419.051,12.8421
420.052,12.8317
421.022,12.8211
422.023,12.8099
423.024,12.7986
424.025,12.7872
425.026,12.7772
426.027,12.7659
427.028,12.7552
428.029,12.7439
429.03,12.7331
430.031,12.7222
431.032,12.7113
432.033,12.7004
433.034,12.6903
434.035,12.6781
435.036,12.6659
436.037,12.655
437.038,12.6431
438.039,12.6322
439.04,12.6211
440.041,12.6104
441.042,12.5996
442.043,12.5882
443.044,12.5776
444.045,12.5668
445.046,12.5556
446.047,12.5444
447.048,12.5352
448.049,12.5237
449.05,12.5128
450.051,12.5019
451.052,12.4906
452.022,12.4807
453.023,12.4715
454.024,12.461
455.025,12.4512
456.026,12.4405
457.027,12.4309
458.028,12.4212
459.029,12.4111
460.03,12.4004
461.031,12.3903
462.032,12.3801
463.033,12.3694
464.034,12.3582
465.035,12.3485
466.036,12.3374
467.037,12.3268
468.038,12.3163
469.039,12.306
470.04,12.2959
471.041,12.2856
472.042,12.2757
473.043,12.2649
474.044,12.2548
475.045,12.245
476.046,12.2346
477.047,12.2245
478.048,12.2153
479.049,12.2052
480.05,12.1945
481.051,12.1841
482.052,12.1746
483.022,12.164
484.023,12.1534
485.024,12.143
486.025,12.1329
487.026,12.1218
488.027,12.112
489.028,12.1007
490.029,12.0906
491.03,12.0803
492.031,12.0709
493.032,12.0605
494.033,12.0504
495.034,12.0407
496.035,12.0313
497.036,12.0218
498.037,12.0135
499.038,12.0037
500.039,11.9936
501.04,11.9837
502.041,11.9741
503.042,11.9639
504.043,11.9542
505.044,11.9454
506.045,11.9357
507.046,11.9253
508.047,11.9147
509.048,11.9043
510.049,11.8939
511.05,11.8828
512.051,11.8733
513.052,11.8628
514.053,11.8531
515.023,11.8424
516.024,11.8323
517.025,11.8223
518.026,11.8118
519.027,11.8015
520.029,11.7911
521.03,11.7807
522.031,11.7695
523.032,11.7576
524.033,11.7464
525.034,11.7356
526.035,11.726
527.036,11.7154
528.037,11.7052
529.038,11.6955
530.039,11.6859
531.04,11.6754
532.041,11.6653
533.042,11.656
534.043,11.6456
535.044,11.6358
536.045,11.6248
537.046,11.6139
538.047,11.6033
539.048,11.5924
540.049,11.5816
541.05,11.5707
542.051,11.5597
543.021,11.5502
544.041,11.5396
545.042,11.5297
546.043,11.5202
547.044,11.5106
548.045,11.5019
549.046,11.4929
550.047,11.4835
551.048,11.4743
552.049,11.4653
553.05,11.4553
554.051,11.4463
555.052,11.4371
556.022,11.427
557.023,11.4178
558.024,11.4089
559.025,11.3999
560.026,11.3908
561.027,11.3817
562.028,11.3713
563.029,11.3617
564.03,11.3516
565.031,11.3419
566.032,11.3321
567.033,11.3224
568.034,11.3121
569.035,11.3006
570.036,11.2901
571.037,11.2811
572.038,11.2715
573.039,11.2613
574.04,11.2512
575.041,11.241
576.042,11.2303
577.043,11.2211
578.044,11.2103
579.045,11.1997
580.046,11.1896
581.047,11.1802
582.048,11.1703
583.049,11.1604
584.05,11.1513
585.051,11.1411
586.052,11.1313
587.021,11.1224
588.022,11.1122
589.023,11.1021
590.024,11.0919
591.025,11.0819
592.026,11.0718
593.027,11.0614
594.028,11.0516
595.029,11.0413
596.03,11.0313
597.031,11.0214
598.032,11.0113
599.033,11.0009
600.034,10.9902
